------- AERODYN v15.00.* BLADE DEFINITION INPUT FILE -------------------------------------
AeroElasticSE FAST driver
======  Blade Properties =================================================================
50          NumBlNds    - Number of blade nodes used in the analysis (-)
    BlSpn        BlCrvAC        BlSwpAC        BlCrvAng       BlTwist        BlChord          BlAFID
     (m)           (m)            (m)            (deg)         (deg)           (m)              (-)
 0.000000000000000e+00  0.000000000000000e+00  0.000000000000000e+00  0.000000000000000e+00  1.999622705006573e+01  2.600000000000000e+00        1
 1.051578633329309e+00  0.000000000000000e+00  0.000000000000000e+00  0.000000000000000e+00  1.976034904473335e+01  2.610299692445002e+00        2
 2.103157266658618e+00  0.000000000000000e+00  0.000000000000000e+00  0.000000000000000e+00  1.948056503444800e+01  2.635450237416904e+00        3
 3.154735899987927e+00  0.000000000000000e+00  0.000000000000000e+00  0.000000000000000e+00  1.916528386771649e+01  2.748675405746825e+00        4
 4.206314533317235e+00  0.000000000000000e+00  0.000000000000000e+00  0.000000000000000e+00  1.881357093567286e+01  2.971394794791483e+00        5
 5.257893166646543e+00  0.000000000000000e+00  0.000000000000000e+00  0.000000000000000e+00  1.840860854130349e+01  3.217279345794625e+00        6
 6.309471799975853e+00  0.000000000000000e+00  0.000000000000000e+00  3.735510366421398e-02  1.793357898759477e+01  3.400000000000000e+00        7
 7.734191238680078e+00  1.614470828692408e-03  0.000000000000000e+00  1.239366694497332e-01  1.705833051212418e+01  3.565168245214298e+00        8
 9.158910677384304e+00  6.163624823134858e-03  0.000000000000000e+00  2.330816044854155e-01  1.588940811850044e+01  3.725538209769202e+00        9
 1.058363011608853e+01  1.320607424587519e-02  0.000000000000000e+00  3.244764640446947e-01  1.451610125654270e+01  3.875751493931286e+00       10
 1.200834955479275e+01  2.230043135946124e-02  0.000000000000000e+00  3.981210805388630e-01  1.302769937607010e+01  4.010449697967123e+00       11
 1.343306899349698e+01  3.300530842644087e-02  0.000000000000000e+00  4.540151546232634e-01  1.151349192690178e+01  4.124274422143285e+00       12
 1.485778843220120e+01  4.487931770936189e-02  0.000000000000000e+00  4.921583612207615e-01  1.006276835885688e+01  4.211867266726345e+00       13
 1.628250787090543e+01  5.748107147077214e-02  0.000000000000000e+00  5.125825666243541e-01  8.764818121754548e+00  4.267869831982877e+00       14
 1.770722730960965e+01  7.037078013083550e-02  0.000000000000000e+00  5.571628290123462e-01  7.708799642670108e+00  4.286918694628582e+00       15
 1.913194674831388e+01  8.518950686306945e-02  0.000000000000000e+00  6.645592869851317e-01  6.801661031987594e+00  4.259842559222722e+00       16
 2.055666618701810e+01  1.034199615298311e-01  0.000000000000000e+00  7.947272114335399e-01  5.919437933154931e+00  4.188296595342950e+00       17
 2.198138562572233e+01  1.247116849307060e-01  0.000000000000000e+00  9.108035436834019e-01  5.078095993649864e+00  4.082135970699343e+00       18
 2.340610506442655e+01  1.487142178652798e-01  0.000000000000000e+00  1.012787495849983e+00  4.293600860950138e+00  3.951215853001977e+00       19
 2.483082450313078e+01  1.750771011331382e-01  0.000000000000000e+00  1.100678136931456e+00  3.581918182533494e+00  3.805391409960926e+00       20
 2.625554394183500e+01  2.034498755338669e-01  0.000000000000000e+00  1.174474485364839e+00  2.959013605877676e+00  3.654517809286268e+00       21
 2.768026338053923e+01  2.334820818670514e-01  0.000000000000000e+00  1.234277688106946e+00  2.440852778460427e+00  3.508450218688075e+00       22
 2.910498281924345e+01  2.648283373649771e-01  0.000000000000000e+00  1.315441374819729e+00  2.043256824225336e+00  3.376974064087620e+00       23
 3.052970225794768e+01  2.988959840046372e-01  0.000000000000000e+00  1.448941221131262e+00  1.728896190366550e+00  3.245575944227672e+00       24
 3.195442169665190e+01  3.368795326265275e-01  0.000000000000000e+00  1.603274500798810e+00  1.454881688853785e+00  3.101882798659821e+00       25
 3.337914113535613e+01  3.786197710518454e-01  0.000000000000000e+00  1.751213619751127e+00  1.214277509009846e+00  2.951945044695071e+00       26
 3.480386057406035e+01  4.239574871017886e-01  0.000000000000000e+00  1.892758116671932e+00  1.000147840157533e+00  2.801813099644423e+00       27
 3.622858001276457e+01  4.727334685975543e-01  0.000000000000000e+00  2.027907350409632e+00  8.055568716196495e-01  2.657537380818882e+00       28
 3.765329945146880e+01  5.247885033603400e-01  0.000000000000000e+00  2.156660526370758e+00  6.235687927189977e-01  2.525168305529450e+00       29
 3.907801889017303e+01  5.799633792113432e-01  0.000000000000000e+00  2.279202159154413e+00  4.472477927783799e-01  2.410756291087130e+00       30
 4.050273832887725e+01  6.381080988671751e-01  0.000000000000000e+00  2.425981470121307e+00  2.698105683214117e-01  2.320313957245877e+00       31
 4.192745776758148e+01  7.005764620662953e-01  0.000000000000000e+00  2.623408413821624e+00  1.077225627618197e-01  2.251726789956318e+00       32
 4.335217720628570e+01  7.685301009561796e-01  0.000000000000000e+00  2.847419248147892e+00 -3.127313451082385e-02  2.197045769974421e+00       33
 4.477689664498993e+01  8.421262902259800e-01  0.000000000000000e+00  3.077807647868775e+00 -1.572180523172221e-01  2.151052420896494e+00       34
 4.620161608369415e+01  9.215223045648504e-01  0.000000000000000e+00  3.314581326485157e+00 -2.801537194780781e-01  2.108528266318844e+00       35
 4.762633552239838e+01  1.006875418661943e+00  0.000000000000000e+00  3.557748755521481e+00 -4.101216648140951e-01  2.064254829837778e+00       36
 4.905105496110260e+01  1.098342907206411e+00  0.000000000000000e+00  3.807319211258986e+00 -5.571634171459761e-01  2.013013635049603e+00       37
 5.047577439980682e+01  1.196082044887407e+00  0.000000000000000e+00  4.033959774360802e+00 -7.313205052944241e-01  1.949586205550625e+00       38
 5.157993196480260e+01  1.276243657596745e+00  0.000000000000000e+00  4.306869411548097e+00 -8.913312028896440e-01  1.888727969823086e+00       39
 5.268408952979837e+01  1.361922718702348e+00  0.000000000000000e+00  4.657812403736137e+00 -1.085045463390192e+00  1.811085386762033e+00       40
 5.378824709479415e+01  1.455569114729731e+00  0.000000000000000e+00  5.062001386488530e+00 -1.323775509715035e+00  1.710143905969416e+00       41
 5.489240465978992e+01  1.556770537842795e+00  0.000000000000000e+00  5.443757643634233e+00 -1.604172515963535e+00  1.587744533782246e+00       42
 5.599656222478569e+01  1.665068904557534e+00  0.000000000000000e+00  5.801863176495878e+00 -1.922673191915681e+00  1.445851595880273e+00       43
 5.710071978978147e+01  1.780006131389945e+00  0.000000000000000e+00  6.136288379046147e+00 -2.275714247351465e+00  1.286429417943252e+00       44
 5.820487735477725e+01  1.901124134856020e+00  0.000000000000000e+00  6.447001346316400e+00 -2.659732392050871e+00  1.111442325650939e+00       45
 5.930903491977301e+01  2.027964831471756e+00  0.000000000000000e+00  6.714808785636118e+00 -3.071164335793888e+00  9.228546446830869e-01       46
 6.025545568976939e+01  2.140892989865465e+00  0.000000000000000e+00  6.962074361276826e+00 -3.442938397432811e+00  7.518720958893985e-01       47
 6.120187645976577e+01  2.257400552350136e+00  0.000000000000000e+00  7.171629535360639e+00 -3.829991344016414e+00  5.735774656726463e-01       48
 6.214829722976215e+01  2.377199046527678e+00  0.000000000000000e+00  7.363671656066191e+00 -4.230079237680198e+00  3.892077637903425e-01       49
 6.309471799975853e+01  2.500000000000000e+00  0.000000000000000e+00  7.455320548080083e+00 -4.640958140559668e+00  2.000000000000000e-01       50
